# VELOCITY:     AVE_POFV:        ERROR:
   0.0733333   0.0118371           0
        0.22   0.0865846           0
    0.366667    0.228801           0
    0.513333    0.395778           0
        0.66    0.557547           0
    0.806667    0.643732           0
    0.953333    0.759554           0
         1.1    0.749547           0
     1.24667    0.701292           0
     1.39333    0.656856           0
        1.54    0.514295           0
     1.68667    0.451569           0
     1.83333    0.357141           0
        1.98    0.253827           0
     2.12667    0.156253           0
     2.27333    0.114168           0
        2.42   0.0655772           0
     2.56667   0.0486486           0
     2.71333   0.0293729           0
        2.86   0.0161528           0
     3.00667  0.00880829           0
     3.15333  0.00464015           0
         3.3  0.00145202           0
     3.44667 0.000883838           0
     3.59333  0.00123106           0
        3.74  0.00133136           0
     3.88667 0.000923074           0
     4.03333  9.4697e-05           0
        4.18 0.000126263           0
     4.32667 0.000157828           0


   0.0733333   0.0142519   0.0017075
        0.22   0.0867109 8.92812e-05
    0.366667     0.21549   0.0094127
    0.513333    0.392018  0.00265903
        0.66    0.572319   0.0104447
    0.806667     0.67769   0.0240119
    0.953333    0.763363  0.00269314
         1.1    0.773826   0.0171683
     1.24667    0.739235   0.0268297
     1.39333    0.646278  0.00747959
        1.54    0.513508 0.000556338
     1.68667    0.440099  0.00811009
     1.83333    0.341875   0.0107943
        1.98    0.234158   0.0139081
     2.12667    0.153821   0.0017196
     2.27333   0.0992401   0.0105558
        2.42   0.0595247  0.00427976
     2.56667   0.0403439  0.00587232
     2.71333   0.0260185   0.0023719
        2.86   0.0130638  0.00218426
     3.00667  0.00876021 3.40019e-05
     3.15333  0.00348801 0.000814691
         3.3  0.00072601 0.000513367
     3.44667 0.000441919 0.000312484
     3.59333  0.00061553 0.000435246
        3.74 0.000665681 0.000470708
     3.88667 0.000461537 0.000326356
     4.03333 4.73485e-05 3.34804e-05
        4.18 6.31313e-05 4.46406e-05
     4.32667 7.89141e-05 5.58007e-05


   0.0733333   0.0126368  0.00174208
        0.22   0.0863742 0.000281284
    0.366667    0.217576  0.00650225
    0.513333    0.381779  0.00854612
        0.66    0.548738   0.0204735
    0.806667    0.674184   0.0162619
    0.953333    0.765222  0.00235095
         1.1    0.761781   0.0150908
     1.24667    0.735953   0.0180862
     1.39333    0.656652  0.00982872
        1.54    0.529407   0.0129871
     1.68667    0.460666   0.0176415
     1.83333    0.349571  0.00955336
        1.98    0.242321   0.0114194
     2.12667    0.156872  0.00274219
     2.27333   0.0955582  0.00765244
        2.42   0.0585489  0.00296233
     2.56667   0.0357869  0.00540095
     2.71333   0.0231011  0.00285909
        2.86    0.012939  0.00145973
     3.00667  0.00726059  0.00122464
     3.15333  0.00318813 0.000595765
         3.3 0.000484007  0.00039519
     3.44667 0.000294613  0.00024055
     3.59333 0.000410354 0.000335052
        3.74 0.000443788 0.000362351
     3.88667 0.000307691 0.000251229
     4.03333 3.15657e-05 2.57733e-05
        4.18 4.20875e-05 3.43643e-05
     4.32667 5.26094e-05 4.29554e-05


   0.0733333    0.011048  0.00189745
        0.22   0.0828993   0.0030167
    0.366667    0.217001  0.00490201
    0.513333    0.387005  0.00784644
        0.66    0.551082   0.0154887
    0.806667    0.672699    0.012264
    0.953333    0.774035  0.00783323
         1.1    0.772369   0.0145667
     1.24667    0.737531   0.0136333
     1.39333     0.65083  0.00893081
        1.54    0.535786    0.011198
     1.68667    0.457376   0.0135344
     1.83333    0.339269   0.0114424
        1.98    0.239751  0.00884916
     2.12667    0.157576  0.00214529
     2.27333   0.0954691  0.00573985
        2.42    0.057477  0.00240788
     2.56667   0.0345422  0.00419168
     2.71333   0.0211216  0.00274535
        2.86   0.0120638  0.00133157
     3.00667  0.00709475 0.000929641
     3.15333  0.00260417 0.000674843
         3.3 0.000363005 0.000314372
     3.44667  0.00022096 0.000191357
     3.59333 0.000307765 0.000266532
        3.74 0.000332841 0.000288248
     3.88667 0.000230769 0.000199851
     4.03333 2.36742e-05 2.05025e-05
        4.18 3.15657e-05 2.73367e-05
     4.32667 3.94571e-05 3.41708e-05


   0.0733333   0.0105429  0.00158375
        0.22   0.0841667  0.00266632
    0.366667    0.218961  0.00429545
    0.513333    0.387779  0.00631526
        0.66    0.564483   0.0172397
    0.806667    0.678134   0.0109495
    0.953333    0.763325   0.0114468
         1.1    0.769152   0.0120034
     1.24667    0.736079   0.0109837
     1.39333    0.649174  0.00729656
        1.54    0.536464  0.00897885
     1.68667    0.450364   0.0125127
     1.83333    0.340633  0.00923476
        1.98    0.240866  0.00714929
     2.12667    0.154073  0.00357315
     2.27333   0.0949738  0.00461321
        2.42   0.0580965  0.00200441
     2.56667   0.0343446    0.003358
     2.71333   0.0224592  0.00250097
        2.86   0.0121447  0.00106771
     3.00667  0.00686267 0.000772139
     3.15333  0.00344697  0.00092721
         3.3 0.000707071 0.000397437
     3.44667 0.000176768 0.000158106
     3.59333 0.000246212 0.000220219
        3.74 0.000266273 0.000238161
     3.88667 0.000184615 0.000165125
     4.03333 1.89394e-05 1.69399e-05
        4.18 2.52525e-05 2.25865e-05
     4.32667 3.15657e-05 2.82332e-05


   0.0733333   0.0104377  0.00132328
        0.22   0.0844697  0.00223909
    0.366667    0.218831   0.0035815
    0.513333    0.388417  0.00529478
        0.66    0.569271   0.0150167
    0.806667    0.684356   0.0107481
    0.953333    0.768301   0.0105654
         1.1     0.76858   0.0100165
     1.24667    0.729419   0.0109884
     1.39333    0.646829  0.00644645
        1.54    0.535642  0.00751987
     1.68667      0.4468   0.0109232
     1.83333    0.332382   0.0107679
        1.98    0.240942  0.00595814
     2.12667    0.156882  0.00392974
     2.27333   0.0991312  0.00540203
        2.42   0.0584201  0.00169626
     2.56667   0.0352546  0.00291902
     2.71333   0.0216989  0.00219666
        2.86   0.0110728  0.00132254
     3.00667  0.00648699 0.000729137
     3.15333  0.00317761 0.000810857
         3.3 0.000589226  0.00034823
     3.44667 0.000147306 0.000134472
     3.59333 0.000205177   0.0001873
        3.74 0.000221894  0.00020256
     3.88667 0.000153846 0.000140441
     4.03333 1.57828e-05 1.44077e-05
        4.18 2.10438e-05 1.92102e-05
     4.32667 2.63047e-05 2.40128e-05


   0.0733333    0.010358  0.00113664
        0.22   0.0838068  0.00201495
    0.366667    0.219834  0.00320724
    0.513333    0.388926  0.00456282
        0.66    0.566424   0.0131387
    0.806667    0.681572  0.00956641
    0.953333    0.766417  0.00922247
         1.1    0.774832   0.0103544
     1.24667    0.735556   0.0109998
     1.39333    0.649807  0.00617531
        1.54    0.532323   0.0071408
     1.68667    0.442364   0.0102237
     1.83333    0.334958  0.00953264
        1.98    0.240518  0.00512205
     2.12667    0.156787  0.00336949
     2.27333   0.0984932  0.00466783
        2.42   0.0570729   0.0019156
     2.56667   0.0351965  0.00250259
     2.71333   0.0214084  0.00190196
        2.86   0.0115292   0.0012098
     3.00667  0.00609238 0.000723921
     3.15333  0.00272367 0.000812207
         3.3 0.000505051 0.000308489
     3.44667 0.000126263 0.000116896
     3.59333 0.000175866  0.00016282
        3.74 0.000190195 0.000176086
     3.88667 0.000131868 0.000122086
     4.03333 1.35281e-05 1.25246e-05
        4.18 1.80375e-05 1.66995e-05
     4.32667 2.25469e-05 2.08744e-05


   0.0733333   0.0100892  0.00102587
        0.22   0.0860835  0.00276474
    0.366667    0.223636  0.00453054
    0.513333    0.387513  0.00420565
        0.66    0.565187   0.0115544
    0.806667    0.677839  0.00906991
    0.953333    0.763753  0.00844559
         1.1    0.780609   0.0105497
     1.24667     0.73894    0.010132
     1.39333    0.651236  0.00556624
        1.54    0.536142  0.00719758
     1.68667    0.437771  0.00992403
     1.83333    0.331417  0.00897471
        1.98    0.238472  0.00487342
     2.12667    0.155232  0.00328745
     2.27333   0.0977859   0.0041376
        2.42   0.0584852  0.00213418
     2.56667   0.0355516  0.00221481
     2.71333   0.0212852   0.0016682
        2.86    0.011907  0.00111601
     3.00667  0.00561098 0.000777184
     3.15333  0.00247001 0.000749243
         3.3 0.000572128 0.000277124
     3.44667  0.00011048 0.000103344
     3.59333 0.000153883 0.000143944
        3.74  0.00016642 0.000155672
     3.88667 0.000115384 0.000107932
     4.03333 1.18371e-05 1.10726e-05
        4.18 1.57828e-05 1.47635e-05
     4.32667 1.97285e-05 1.84544e-05


   0.0733333   0.0100905 0.000911883
        0.22   0.0850519    0.002643
    0.366667    0.221964  0.00432478
    0.513333    0.389237  0.00407648
        0.66    0.566201   0.0103149
    0.806667    0.679245   0.0081705
    0.953333    0.767907  0.00846721
         1.1    0.784128  0.00994704
     1.24667    0.739639  0.00903028
     1.39333    0.654522  0.00583758
        1.54    0.536174  0.00639792
     1.68667    0.440287  0.00913477
     1.83333    0.329483  0.00818314
        1.98    0.232135  0.00737971
     2.12667    0.153017  0.00359211
     2.27333    0.095903  0.00408388
        2.42    0.057816  0.00199922
     2.56667   0.0350631  0.00202186
     2.71333   0.0206774  0.00158974
        2.86   0.0114012  0.00110068
     3.00667  0.00500858 0.000894321
     3.15333  0.00219557 0.000714492
         3.3 0.000508558 0.000253519
     3.44667 9.82043e-05 9.25879e-05
     3.59333 0.000136785 0.000128962
        3.74 0.000147929 0.000139469
     3.88667 0.000102564 9.66981e-05
     4.03333 1.05219e-05 9.92013e-06
        4.18 1.40292e-05 1.32268e-05
     4.32667 1.75365e-05 1.65335e-05


   0.0733333  0.00995265 0.000831047
        0.22   0.0836963  0.00270408
    0.366667     0.22044  0.00415217
    0.513333    0.388842  0.00368789
        0.66     0.56317  0.00971851
    0.806667    0.678969  0.00735812
    0.953333    0.769983   0.0078709
         1.1    0.781981  0.00918113
     1.24667    0.742374  0.00853118
     1.39333    0.657646  0.00603219
        1.54    0.539286  0.00647105
     1.68667    0.440738  0.00823239
     1.83333    0.328394  0.00743695
        1.98    0.230563  0.00680713
     2.12667    0.151812  0.00342888
     2.27333   0.0955709  0.00368897
        2.42   0.0579561   0.0018042
     2.56667   0.0356635  0.00190674
     2.71333   0.0205067   0.0014399
        2.86   0.0119941  0.00113913
     3.00667  0.00516113 0.000817796
     3.15333  0.00229482 0.000649901
         3.3 0.000517677 0.000228331
     3.44667 0.000170455 0.000107897
     3.59333 0.000236742 0.000149879
        3.74 0.000133136 0.000126304
     3.88667 9.23074e-05 8.75705e-05
     4.03333  9.4697e-06 8.98374e-06
        4.18 1.26263e-05 1.19783e-05
     4.32667 1.57828e-05 1.49729e-05


   0.0733333   0.0101383  0.00077596
        0.22   0.0848485  0.00269254
    0.366667    0.219294  0.00392981
    0.513333    0.385641  0.00453384
        0.66    0.558391  0.00994061
    0.806667    0.676287  0.00716144
    0.953333    0.770962  0.00721591
         1.1    0.783473   0.0084668
     1.24667     0.74614  0.00854679
     1.39333    0.660684  0.00620194
        1.54    0.538518  0.00592816
     1.68667    0.442621  0.00769649
     1.83333    0.328619  0.00676427
        1.98    0.232668  0.00650582
     2.12667    0.151762  0.00311753
     2.27333   0.0944526  0.00351902
        2.42   0.0572529  0.00177193
     2.56667   0.0362781  0.00182977
     2.71333   0.0204073  0.00131243
        2.86   0.0114661  0.00115143
     3.00667   0.0051109 0.000744992
     3.15333   0.0020862 0.000623404
         3.3 0.000470615 0.000212368
     3.44667 0.000154959  9.9195e-05
     3.59333  0.00021522  0.00013779
        3.74 0.000121033   0.0001154
     3.88667 8.39158e-05 8.00106e-05
     4.03333 8.60882e-06 8.20818e-06
        4.18 1.14784e-05 1.09442e-05
     4.32667  1.4348e-05 1.36803e-05


   0.0733333  0.00988005  0.00075305
        0.22   0.0844381  0.00249924
    0.366667    0.220758  0.00386562
    0.513333    0.388369  0.00490834
        0.66    0.559615  0.00918722
    0.806667    0.677077  0.00660806
    0.953333    0.774807  0.00757026
         1.1    0.781728  0.00793904
     1.24667    0.745423   0.0078646
     1.39333    0.658647  0.00601041
        1.54    0.539391    0.005498
     1.68667    0.442971  0.00706303
     1.83333    0.327486  0.00629473
        1.98    0.229906   0.0065236
     2.12667    0.149735  0.00345476
     2.27333   0.0951385  0.00329193
        2.42   0.0574008  0.00163043
     2.56667   0.0358486  0.00172697
     2.71333   0.0198562  0.00131367
        2.86   0.0116023  0.00106349
     3.00667  0.00517426 0.000685598
     3.15333  0.00194129 0.000588056
         3.3 0.000431397 0.000198259
     3.44667 0.000142045 9.17654e-05
     3.59333 0.000197285 0.000127469
        3.74 0.000110947 0.000106224
     3.88667 7.69228e-05  7.3648e-05
     4.03333 7.89141e-06 7.55545e-06
        4.18 1.05219e-05 1.00739e-05
     4.32667 1.31524e-05 1.25924e-05


   0.0733333  0.00992376  0.00069639
        0.22   0.0853584  0.00247061
    0.366667    0.223712  0.00455904
    0.513333    0.391332  0.00535113
        0.66    0.559965   0.0084872
    0.806667    0.676235  0.00615316
    0.953333    0.771386   0.0077223
         1.1    0.778568   0.0079321
     1.24667    0.744889  0.00727775
     1.39333    0.659866  0.00567035
        1.54    0.540452   0.0051765
     1.68667    0.440913  0.00681278
     1.83333    0.326132  0.00595443
        1.98    0.229427  0.00603937
     2.12667    0.152047  0.00388669
     2.27333   0.0957334  0.00309199
        2.42   0.0574045  0.00150502
     2.56667    0.035524  0.00162435
     2.71333   0.0196958  0.00122237
        2.86   0.0117587 0.000993128
     3.00667  0.00491222   0.0006811
     3.15333  0.00187451 0.000546599
         3.3 0.000497766 0.000193799
     3.44667 0.000189394 9.61489e-05
     3.59333  0.00018211 0.000118564
        3.74 0.000102413 9.83948e-05
     3.88667 7.10057e-05 6.82201e-05
     4.03333 7.28438e-06 6.99861e-06
        4.18 9.71251e-06 9.33148e-06
     4.32667 1.21406e-05 1.16643e-05


   0.0733333   0.0100492 0.000657841
        0.22   0.0851303  0.00230464
    0.366667    0.223551  0.00423622
    0.513333    0.390626  0.00501534
        0.66    0.559569  0.00789021
    0.806667    0.676302  0.00571402
    0.953333    0.769735   0.0073452
         1.1    0.777148  0.00749164
     1.24667    0.744864  0.00675796
     1.39333    0.657671  0.00567431
        1.54    0.539795   0.0048483
     1.68667    0.441734  0.00637536
     1.83333    0.327167  0.00561838
        1.98    0.231713  0.00602501
     2.12667     0.15439  0.00425708
     2.27333   0.0967349  0.00302898
        2.42   0.0581135  0.00155555
     2.56667   0.0355434  0.00150844
     2.71333   0.0196373  0.00113646
        2.86   0.0111781  0.00107865
     3.00667   0.0047079 0.000662387
     3.15333  0.00179022 0.000514014
         3.3 0.000500541 0.000179976
     3.44667 0.000175866 9.02278e-05
     3.59333 0.000169102 0.000110806
        3.74 9.50973e-05 9.16381e-05
     3.88667 6.59339e-05 6.35355e-05
     4.03333 6.76407e-06 6.51802e-06
        4.18 9.01876e-06 8.69069e-06
     4.32667 1.12734e-05 1.08634e-05


   0.0733333   0.0100379 0.000614082
        0.22   0.0857513  0.00223308
    0.366667    0.223896  0.00396782
    0.513333    0.390144  0.00470409
        0.66     0.55859  0.00742467
    0.806667     0.67652  0.00533725
    0.953333    0.768573  0.00694683
         1.1    0.776721  0.00700438
     1.24667    0.742672   0.0066532
     1.39333    0.660057  0.00577605
        1.54    0.542491  0.00522129
     1.68667    0.442935  0.00606246
     1.83333    0.326244  0.00531911
        1.98    0.230472   0.0057497
     2.12667    0.153369  0.00409383
     2.27333   0.0971861  0.00286046
        2.42   0.0581955  0.00145401
     2.56667   0.0353897  0.00141568
     2.71333   0.0200285  0.00112601
        2.86    0.010999   0.0010215
     3.00667  0.00496643 0.000666774
     3.15333  0.00191709 0.000495155
         3.3 0.000528199  0.00017009
     3.44667 0.000164141  8.4971e-05
     3.59333 0.000157828 0.000103991
        3.74 8.87575e-05 8.57479e-05
     3.88667 6.15383e-05 5.94516e-05
     4.03333 6.31313e-06 6.09906e-06
        4.18 8.41751e-06 8.13209e-06
     4.32667 1.05219e-05 1.01651e-05


   0.0733333   0.0102963 0.000627735
        0.22   0.0857422  0.00209353
    0.366667    0.224514  0.00376756
    0.513333    0.390266  0.00441168
        0.66    0.556088   0.0073701
    0.806667    0.676404  0.00500495
    0.953333    0.768767  0.00651538
         1.1      0.7776  0.00662151
     1.24667    0.743237  0.00626128
     1.39333    0.659496  0.00544228
        1.54    0.543736  0.00504112
     1.68667     0.44324  0.00569125
     1.83333    0.326697  0.00500592
        1.98    0.230122  0.00540098
     2.12667    0.153536  0.00384134
     2.27333   0.0976047  0.00271213
        2.42    0.058571   0.0014108
     2.56667    0.034695  0.00148793
     2.71333   0.0193745    0.001231
        2.86   0.0106371  0.00101976
     3.00667  0.00480004 0.000645527
     3.15333  0.00179727 0.000478485
         3.3 0.000495186 0.000162631
     3.44667 0.000153883 8.02772e-05
     3.59333 0.000147964 9.79584e-05
        3.74 8.32102e-05 8.05679e-05
     3.88667 5.76921e-05 5.58602e-05
     4.03333 5.91856e-06 5.73062e-06
        4.18 7.89141e-06 7.64083e-06
     4.32667 9.86427e-06 9.55104e-06


   0.0733333   0.0102031 0.000597686
        0.22   0.0857379  0.00197039
    0.366667    0.226113   0.0038706
    0.513333     0.39106  0.00422293
        0.66    0.553929  0.00724597
    0.806667    0.676169  0.00471605
    0.953333    0.769221  0.00614791
         1.1    0.777822  0.00623574
     1.24667    0.741197  0.00621647
     1.39333    0.657472  0.00548547
        1.54    0.545675    0.005104
     1.68667    0.444828  0.00557357
     1.83333    0.325548   0.0048415
        1.98    0.229713  0.00509874
     2.12667    0.154501  0.00373475
     2.27333   0.0979572  0.00257541
        2.42   0.0590472  0.00140589
     2.56667   0.0343921  0.00143091
     2.71333   0.0190815  0.00119294
        2.86   0.0107114 0.000962475
     3.00667  0.00489648 0.000614715
     3.15333  0.00182709 0.000451267
         3.3 0.000508764  0.00015363
     3.44667 0.000219103 9.85496e-05
     3.59333 0.000196821 0.000103666
        3.74 7.83155e-05 7.59771e-05
     3.88667 5.42985e-05 5.26773e-05
     4.03333 5.57041e-06 5.40409e-06
        4.18 7.42721e-06 7.20546e-06
     4.32667 9.28402e-06 9.00682e-06


   0.0733333   0.0103658 0.000586202
        0.22   0.0859252  0.00186981
    0.366667    0.226379   0.0036647
    0.513333    0.392137  0.00412341
        0.66    0.555866  0.00709758
    0.806667    0.678259  0.00489542
    0.953333    0.770691  0.00597945
         1.1    0.777504  0.00589742
     1.24667    0.741961  0.00591792
     1.39333    0.656403   0.0052839
        1.54    0.540797  0.00676132
     1.68667    0.441694  0.00608157
     1.83333    0.322775  0.00530765
        1.98    0.229425  0.00482361
     2.12667     0.15527  0.00360553
     2.27333    0.099179  0.00270667
        2.42    0.059567  0.00142061
     2.56667   0.0352066  0.00156616
     2.71333    0.019605  0.00123619
        2.86   0.0110808 0.000977335
     3.00667   0.0051786  0.00064205
     3.15333  0.00189394 0.000431119
         3.3 0.000480499 0.000147672
     3.44667  0.00020693 9.38233e-05
     3.59333 0.000185887 9.84822e-05
        3.74 7.39646e-05 7.18807e-05
     3.88667 5.12819e-05  4.9837e-05
     4.03333 5.26094e-06 5.11272e-06
